TIME(sec.)  dVn  dVh  dVe  dH(m)  dFi(rad)  dLm(rad)
1.000000000000   0.000000446513   0.000000000000   -0.000000125772   0.000000000000   0.000000000000   0.000000000000   
2.000000000000   0.000407803851   0.000000000000   -0.000338782682   0.000000000000   0.000000129989   0.000000095007   
3.000000000000   0.000796250398   0.000000000000   -0.000685729218   0.000000000000   0.000000147165   0.000000098048   
4.000000000000   0.001159342374   0.000000000000   -0.001037261750   0.000000000000   0.000000153680   0.000000098945   
5.000000000000   0.001522319419   0.000000000000   -0.001380795960   0.000000000000   0.000000146300   0.000000101475   
6.000000000000   0.001857168702   0.000000000000   -0.001737035300   0.000000000000   0.000000143596   0.000000102053   
7.000000000000   0.002182776446   0.000000000000   -0.002102174363   0.000000000000   0.000000142273   0.000000100429   
8.000000000000   0.002530984981   0.000000000000   -0.002431018747   0.000000000000   0.000000146079   0.000000096492   
9.000000000000   0.002908630833   0.000000000000   -0.002765649560   0.000000000000   0.000000148497   0.000000096388   
10.000000000000   0.003281602309   0.000000000000   -0.003128164855   0.000000000000   0.000000150465   0.000000096233   
11.000000000000   0.003638823299   0.000000000000   -0.003458272441   0.000000000000   0.000000151114   0.000000098237   
12.000000000000   0.003994705016   0.000000000000   -0.003766476594   0.000000000000   0.000000149961   0.000000100892   
13.000000000000   0.004338271914   0.000000000000   -0.004088465471   0.000000000000   0.000000153597   0.000000106126   
14.000000000000   0.004660503079   0.000000000000   -0.004394068524   0.000000000000   0.000000156200   0.000000111243   
15.000000000000   0.004995381668   0.000000000000   -0.004696614020   0.000000000000   0.000000164961   0.000000114055   
16.000000000000   0.005314610935   0.000000000000   -0.005010058938   0.000000000000   0.000000161341   0.000000120652   
17.000000000000   0.005627735596   0.000000000000   -0.005321660505   0.000000000000   0.000000167557   0.000000127442   
18.000000000000   0.005921502687   0.000000000000   -0.005619178221   0.000000000000   0.000000166998   0.000000131767   
19.000000000000   0.006181566586   0.000000000000   -0.005950648944   0.000000000000   0.000000166474   0.000000128532   
20.000000000000   0.006464812402   0.000000000000   -0.006278254378   0.000000000000   0.000000165026   0.000000133682   
21.000000000000   0.006752318264   0.000000000000   -0.006601621479   0.000000000000   0.000000159449   0.000000135492   
22.000000000000   0.007023868237   0.000000000000   -0.006903060532   0.000000000000   0.000000159369   0.000000138470   
23.000000000000   0.007282156030   0.000000000000   -0.007196707480   0.000000000000   0.000000154158   0.000000139926   
24.000000000000   0.007529142274   0.000000000000   -0.007512172491   0.000000000000   0.000000158882   0.000000139620   
25.000000000000   0.007828652258   0.000000000000   -0.007846342389   0.000000000000   0.000000164824   0.000000145677   
26.000000000000   0.008187063058   0.000000000000   -0.008176728072   0.000000000000   0.000000165012   0.000000146831   
27.000000000000   0.008592619522   0.000000000000   -0.008557248734   0.000000000000   0.000000167314   0.000000146569   
28.000000000000   0.009026516252   0.000000000000   -0.008942838486   0.000000000000   0.000000168319   0.000000149181   
29.000000000000   0.009461997028   0.000000000000   -0.009288181002   0.000000000000   0.000000163529   0.000000149874   
30.000000000000   0.009877649569   0.000000000000   -0.009625125270   0.000000000000   0.000000162134   0.000000150610   
31.000000000000   0.010235040087   0.000000000000   -0.009916660744   0.000000000000   0.000000155450   0.000000151788   
32.000000000000   0.010570451091   0.000000000000   -0.010184117217   0.000000000000   0.000000156391   0.000000153195   
33.000000000000   0.010951608648   0.000000000000   -0.010436981038   0.000000000000   0.000000160742   0.000000149481   
34.000000000000   0.011352631751   0.000000000000   -0.010673945571   0.000000000000   0.000000161809   0.000000147607   
35.000000000000   0.011752909461   0.000000000000   -0.010899854399   0.000000000000   0.000000161655   0.000000146683   
36.000000000000   0.012174477283   0.000000000000   -0.011119492855   0.000000000000   0.000000165358   0.000000148900   
37.000000000000   0.012632226008   0.000000000000   -0.011368394384   0.000000000000   0.000000169131   0.000000149911   
38.000000000000   0.013081540158   0.000000000000   -0.011613652788   0.000000000000   0.000000172078   0.000000151784   
39.000000000000   0.013527037117   0.000000000000   -0.011857145438   0.000000000000   0.000000173403   0.000000150028   
40.000000000000   0.014008919783   0.000000000000   -0.012080180172   0.000000000000   0.000000176433   0.000000148055   
41.000000000000   0.014497124214   0.000000000000   -0.012299358627   0.000000000000   0.000000182376   0.000000147598   
42.000000000000   0.014967346131   0.000000000000   -0.012563234304   0.000000000000   0.000000185824   0.000000147546   
43.000000000000   0.015457239541   0.000000000000   -0.012805086401   0.000000000000   0.000000188769   0.000000149107   
44.000000000000   0.015950417254   0.000000000000   -0.012952794387   0.000000000000   0.000000186988   0.000000145022   
45.000000000000   0.016466788386   0.000000000000   -0.013026203659   0.000000000000   0.000000189236   0.000000147565   
46.000000000000   0.016977154784   0.000000000000   -0.013075258244   0.000000000000   0.000000196810   0.000000144350   
47.000000000000   0.017438462045   0.000000000000   -0.013168838009   0.000000000000   0.000000200060   0.000000145637   
48.000000000000   0.017928294319   0.000000000000   -0.013287150400   0.000000000000   0.000000206936   0.000000148014   
49.000000000000   0.018401798892   0.000000000000   -0.013415279076   0.000000000000   0.000000214590   0.000000145267   
50.000000000000   0.018855505763   0.000000000000   -0.013528447194   0.000000000000   0.000000221273   0.000000150115   
51.000000000000   0.019331344397   0.000000000000   -0.013604065379   0.000000000000   0.000000223404   0.000000152501   
52.000000000000   0.019786790359   0.000000000000   -0.013682584040   0.000000000000   0.000000226987   0.000000154569   
53.000000000000   0.020221519919   0.000000000000   -0.013714288920   0.000000000000   0.000000229511   0.000000154094   
54.000000000000   0.020630121058   0.000000000000   -0.013736603693   0.000000000000   0.000000238995   0.000000156410   
55.000000000000   0.020998438831   0.000000000000   -0.013748892415   0.000000000000   0.000000244603   0.000000155338   
56.000000000000   0.021337348724   0.000000000000   -0.013751571409   0.000000000000   0.000000254274   0.000000154583   
57.000000000000   0.021663321395   0.000000000000   -0.013727402878   0.000000000000   0.000000259093   0.000000151098   
58.000000000000   0.022010649324   0.000000000000   -0.013679375226   0.000000000000   0.000000265000   0.000000152173   
59.000000000000   0.022349383422   0.000000000000   -0.013630833467   0.000000000000   0.000000270718   0.000000150652   
60.000000000000   0.022704892226   0.000000000000   -0.013567205633   0.000000000000   0.000000275049   0.000000147731   
61.000000000000   0.023104451602   0.000000000000   -0.013494006356   0.000000000000   0.000000277164   0.000000142491   
62.000000000000   0.023519742185   0.000000000000   -0.013433728927   0.000000000000   0.000000278708   0.000000146991   
63.000000000000   0.023975535949   0.000000000000   -0.013368094899   0.000000000000   0.000000287399   0.000000147788   
64.000000000000   0.024494092445   0.000000000000   -0.013331060246   0.000000000000   0.000000292451   0.000000146727   
65.000000000000   0.025051111714   0.000000000000   -0.013351335203   0.000000000000   0.000000296268   0.000000146875   
66.000000000000   0.025631370833   0.000000000000   -0.013435547985   0.000000000000   0.000000298291   0.000000142296   
67.000000000000   0.026220031526   0.000000000000   -0.013527822452   0.000000000000   0.000000305016   0.000000143521   
68.000000000000   0.026835130621   0.000000000000   -0.013614157430   0.000000000000   0.000000309542   0.000000141695   
69.000000000000   0.027436405084   0.000000000000   -0.013743035112   0.000000000000   0.000000312224   0.000000141953   
70.000000000000   0.028007758503   0.000000000000   -0.013838259338   0.000000000000   0.000000321047   0.000000146240   
71.000000000000   0.028584896636   0.000000000000   -0.013917482857   0.000000000000   0.000000328744   0.000000141578   
72.000000000000   0.029155537694   0.000000000000   -0.014008683283   0.000000000000   0.000000329456   0.000000138810   
73.000000000000   0.029709613043   0.000000000000   -0.014104725670   0.000000000000   0.000000337856   0.000000136214   
74.000000000000   0.030259385108   0.000000000000   -0.014226271923   0.000000000000   0.000000346357   0.000000136768   
75.000000000000   0.030819995841   0.000000000000   -0.014372804886   0.000000000000   0.000000347113   0.000000134180   
76.000000000000   0.031403330398   0.000000000000   -0.014523045287   0.000000000000   0.000000357879   0.000000131108   
77.000000000000   0.032004934054   0.000000000000   -0.014644924670   0.000000000000   0.000000361709   0.000000130234   
78.000000000000   0.032622653065   0.000000000000   -0.014789694754   0.000000000000   0.000000365973   0.000000126579   
79.000000000000   0.033216171810   0.000000000000   -0.014918319725   0.000000000000   0.000000371236   0.000000120347   
80.000000000000   0.033802470533   0.000000000000   -0.015050160817   0.000000000000   0.000000377621   0.000000115476   
81.000000000000   0.034399561436   0.000000000000   -0.015214382338   0.000000000000   0.000000385072   0.000000112512   
82.000000000000   0.035008942976   0.000000000000   -0.015395041814   0.000000000000   0.000000391518   0.000000111727   
83.000000000000   0.035627480649   0.000000000000   -0.015599398925   0.000000000000   0.000000394217   0.000000109420   
84.000000000000   0.036203588589   0.000000000000   -0.015797845277   0.000000000000   0.000000398266   0.000000104143   
85.000000000000   0.036738069605   0.000000000000   -0.016001448304   0.000000000000   0.000000404231   0.000000099154   
86.000000000000   0.037307285024   0.000000000000   -0.016201902161   0.000000000000   0.000000413768   0.000000094985   
87.000000000000   0.037865920414   0.000000000000   -0.016404606100   0.000000000000   0.000000422815   0.000000089963   
88.000000000000   0.038436715548   0.000000000000   -0.016602566399   0.000000000000   0.000000430082   0.000000086999   
89.000000000000   0.038984353146   0.000000000000   -0.016798764304   0.000000000000   0.000000437442   0.000000082661   
90.000000000000   0.039578062134   0.000000000000   -0.016997840577   0.000000000000   0.000000446185   0.000000076725   
91.000000000000   0.040206504660   0.000000000000   -0.017187038976   0.000000000000   0.000000458350   0.000000072940   
92.000000000000   0.040840847811   0.000000000000   -0.017337280997   0.000000000000   0.000000465928   0.000000072089   
93.000000000000   0.041427241146   0.000000000000   -0.017456089709   0.000000000000   0.000000474122   0.000000065630   
94.000000000000   0.041988178589   0.000000000000   -0.017619020464   0.000000000000   0.000000480902   0.000000057723   
95.000000000000   0.042590063007   0.000000000000   -0.017766024638   0.000000000000   0.000000492121   0.000000053984   
96.000000000000   0.043204424228   0.000000000000   -0.017927979508   0.000000000000   0.000000503309   0.000000047690   
97.000000000000   0.043845429608   0.000000000000   -0.018119865703   0.000000000000   0.000000507261   0.000000040655   
98.000000000000   0.044485531326   0.000000000000   -0.018285896421   0.000000000000   0.000000512112   0.000000037164   
99.000000000000   0.045062893487   0.000000000000   -0.018401063195   0.000000000000   0.000000518328   0.000000032811   
100.000000000000   0.045608163451   0.000000000000   -0.018521239843   0.000000000000   0.000000528682   0.000000028892   
101.000000000000   0.046186020609   0.000000000000   -0.018651369548   0.000000000000   0.000000536838   0.000000021276   
102.000000000000   0.046742149867   0.000000000000   -0.018780689067   0.000000000000   0.000000547972   0.000000016218   
103.000000000000   0.047311460061   0.000000000000   -0.018907370388   0.000000000000   0.000000555366   0.000000012739   
104.000000000000   0.047902370708   0.000000000000   -0.019002493937   0.000000000000   0.000000563162   0.000000007129   
105.000000000000   0.048501605788   0.000000000000   -0.019054972948   0.000000000000   0.000000568189   0.000000001836   
106.000000000000   0.049133265411   0.000000000000   -0.019108017504   0.000000000000   0.000000572819   -0.000000001745   
107.000000000000   0.049779076157   0.000000000000   -0.019187180583   0.000000000000   0.000000583761   -0.000000007645   
108.000000000000   0.050390620738   0.000000000000   -0.019284828359   0.000000000000   0.000000590610   -0.000000008767   
109.000000000000   0.050964391621   0.000000000000   -0.019415420130   0.000000000000   0.000000602385   -0.000000014948   
110.000000000000   0.051513865188   0.000000000000   -0.019458063862   0.000000000000   0.000000609454   -0.000000023389   
111.000000000000   0.052090826069   0.000000000000   -0.019490321561   0.000000000000   0.000000615934   -0.000000030716   
112.000000000000   0.052706712269   0.000000000000   -0.019490525395   0.000000000000   0.000000621481   -0.000000033329   
113.000000000000   0.053346901007   0.000000000000   -0.019494275160   0.000000000000   0.000000629331   -0.000000040681   
114.000000000000   0.053974433616   0.000000000000   -0.019492119839   0.000000000000   0.000000637152   -0.000000049706   
115.000000000000   0.054624959028   0.000000000000   -0.019470347312   0.000000000000   0.000000647553   -0.000000057743   
116.000000000000   0.055308540456   0.000000000000   -0.019413242182   0.000000000000   0.000000653523   -0.000000063810   
117.000000000000   0.055974813099   0.000000000000   -0.019331775540   0.000000000000   0.000000661218   -0.000000071188   
118.000000000000   0.056607427379   0.000000000000   -0.019266052373   0.000000000000   0.000000671124   -0.000000077987   
119.000000000000   0.057223723730   0.000000000000   -0.019179381646   0.000000000000   0.000000680670   -0.000000088628   
120.000000000000   0.057804095095   0.000000000000   -0.019078830029   0.000000000000   0.000000689409   -0.000000097727   
121.000000000000   0.058376352965   0.000000000000   -0.018957819502   0.000000000000   0.000000700275   -0.000000106743   
122.000000000000   0.058950100064   0.000000000000   -0.018849056439   0.000000000000   0.000000705745   -0.000000118468   
123.000000000000   0.059543186174   0.000000000000   -0.018760311661   0.000000000000   0.000000714641   -0.000000123445   
124.000000000000   0.060126977394   0.000000000000   -0.018660147483   0.000000000000   0.000000721813   -0.000000132078   
125.000000000000   0.060718100469   0.000000000000   -0.018545698172   0.000000000000   0.000000730121   -0.000000138220   
126.000000000000   0.061325857895   0.000000000000   -0.018439886711   0.000000000000   0.000000739966   -0.000000146182   
127.000000000000   0.061962501008   0.000000000000   -0.018298268874   0.000000000000   0.000000752481   -0.000000152264   
128.000000000000   0.062636179763   0.000000000000   -0.018172134399   0.000000000000   0.000000764652   -0.000000157516   
129.000000000000   0.063346991314   0.000000000000   -0.018058295491   0.000000000000   0.000000772445   -0.000000162310   
130.000000000000   0.064075742976   0.000000000000   -0.017981923306   0.000000000000   0.000000780038   -0.000000168800   
131.000000000000   0.064796905797   0.000000000000   -0.017929728444   0.000000000000   0.000000787762   -0.000000178297   
132.000000000000   0.065535230859   0.000000000000   -0.017871275207   0.000000000000   0.000000795094   -0.000000188921   
133.000000000000   0.066294779255   0.000000000000   -0.017824823481   0.000000000000   0.000000802397   -0.000000193094   
134.000000000000   0.067080934361   0.000000000000   -0.017751418101   0.000000000000   0.000000814076   -0.000000199897   
135.000000000000   0.067895137590   0.000000000000   -0.017690687656   0.000000000000   0.000000822933   -0.000000206961   
136.000000000000   0.068686760974   0.000000000000   -0.017652580173   0.000000000000   0.000000835188   -0.000000214954   
137.000000000000   0.069440857712   0.000000000000   -0.017620672630   0.000000000000   0.000000844067   -0.000000222722   
138.000000000000   0.070165381716   0.000000000000   -0.017581186791   0.000000000000   0.000000850951   -0.000000230782   
139.000000000000   0.070882670528   0.000000000000   -0.017512388944   0.000000000000   0.000000859430   -0.000000235245   
140.000000000000   0.071589786281   0.000000000000   -0.017432356131   0.000000000000   0.000000869177   -0.000000243830   
141.000000000000   0.072294633507   0.000000000000   -0.017367922081   0.000000000000   0.000000878393   -0.000000247854   
142.000000000000   0.072977846288   0.000000000000   -0.017301235554   0.000000000000   0.000000887298   -0.000000253932   
143.000000000000   0.073657932137   0.000000000000   -0.017242336225   0.000000000000   0.000000898471   -0.000000260482   
144.000000000000   0.074299330572   0.000000000000   -0.017155774074   0.000000000000   0.000000905798   -0.000000266341   
145.000000000000   0.074903400244   0.000000000000   -0.017064810504   0.000000000000   0.000000913614   -0.000000273663   
146.000000000000   0.075478424173   0.000000000000   -0.016943770853   0.000000000000   0.000000925003   -0.000000281917   
147.000000000000   0.076040551113   0.000000000000   -0.016799167827   0.000000000000   0.000000933292   -0.000000288535   
148.000000000000   0.076650147178   0.000000000000   -0.016672575301   0.000000000000   0.000000942894   -0.000000296531   
149.000000000000   0.077250446545   0.000000000000   -0.016541122326   0.000000000000   0.000000950400   -0.000000303839   
150.000000000000   0.077872019207   0.000000000000   -0.016413132573   0.000000000000   0.000000961036   -0.000000311382   
151.000000000000   0.078506048134   0.000000000000   -0.016278780489   0.000000000000   0.000000969232   -0.000000319501   
152.000000000000   0.079179349355   0.000000000000   -0.016122663543   0.000000000000   0.000000980180   -0.000000326556   
153.000000000000   0.079855999505   0.000000000000   -0.015910100966   0.000000000000   0.000000991672   -0.000000332988   
154.000000000000   0.080487521460   0.000000000000   -0.015706986719   0.000000000000   0.000001000706   -0.000000341766   
155.000000000000   0.081109851178   0.000000000000   -0.015509958888   0.000000000000   0.000001011334   -0.000000348761   
156.000000000000   0.081761501868   0.000000000000   -0.015313040974   0.000000000000   0.000001019619   -0.000000357385   
157.000000000000   0.082432412656   0.000000000000   -0.015133820080   0.000000000000   0.000001029403   -0.000000366212   
158.000000000000   0.083115343107   0.000000000000   -0.014959905258   0.000000000000   0.000001038201   -0.000000371466   
159.000000000000   0.083765519279   0.000000000000   -0.014795717947   0.000000000000   0.000001047417   -0.000000377951   
